isentropic_mdot [kg/s],isentropic_tank.mass [kg],isentropic_tank.volume [m^3],isentropic_tank.inenergy [J],isentropic_tank.pressure [Pa],isentropic_tank.temperature [degK],isentropic_tank.density [kg/m^3],isentropic_tank.sp_inenergy [J/kg],isentropic_tank.sp_enthalpy [J/kg],time [s]
-1.5871493244475856,1.0804750995372943,0.0037854117839999993,174098.5333259398,26680984.27560946,285.515063505596,285.43132456664176,161131.46281714056,254607.48306866016,0.0
-1.545925371258263,1.0650158458247116,0.0037854117839999993,170185.77155495854,25829136.628421176,282.95161698446253,281.3474217854635,159796.46896537257,251601.59895201493,0.01
-1.506456355414451,1.0499512822705672,0.0037854117839999993,166417.35446466453,25020232.43704989,280.4562261280086,277.3677851134854,158500.07259839663,248706.0510137084,0.02
-1.4686367842512253,1.035264914428055,0.0037854117839999993,162785.30319223268,24251304.31341972,278.0256835943975,273.48805717884227,157240.2395981568,245914.32856417348,0.03
-1.432369271467218,1.0209412217133829,0.0037854117839999993,159282.2288586799,23519641.39070396,275.65699050077313,269.70413787705985,156015.08242694553,243220.42371624007,0.04
-1.397563785408416,1.0069655838592988,0.0037854117839999993,155901.27853083276,22822762.98995217,273.3473394842304,266.01216494213224,154822.84700667238,240618.78417712846,0.05
-1.3641369783820096,0.9933242140754787,0.0037854117839999993,152636.08703084278,22158395.393764075,271.09409939642546,262.40849628936405,153661.90098658422,238104.27121124906,0.06
-1.3320115871192948,0.9800040982042857,0.0037854117839999993,149480.7338686055,21524451.315137245,268.8948014510299,258.88969394202263,152530.72323116515,235672.122131183,0.07
-1.3011158958419151,0.9669929392458665,0.0037854117839999993,146429.70467302782,20919011.70991854,266.74712666567166,255.45250937641893,151427.89438279113,233317.91676301198,0.08
-1.2713832545244617,0.9542791067006219,0.0037854117839999993,143477.85658327944,20340309.631967507,264.6488944593525,252.09387013960384,150352.0883731258,231037.5474075065,0.09
-1.2427516459191512,0.9418515902414304,0.0037854117839999993,140620.38713354553,19786715.872854635,262.59805228308363,248.81086761086453,149302.06477381376,228827.19188281414,0.1
-1.2151632957414484,0.9296999572840159,0.0037854117839999993,137852.80622645456,19256726.16401644,260.5926661760063,245.60074579300144,148276.66189118865,226683.28928899995,0.11
-1.1885643211306138,0.9178143140727097,0.0037854117839999993,135170.91084302258,18748949.749878667,258.63091215188115,242.460891032274,147274.7905218596,224602.51818158763,0.12
-1.1629044131144226,0.9061852699415656,0.0037854117839999993,132570.76218205254,18262099.166447047,256.7110683318195,239.38882257718615,146295.4282964688,222581.7768813482,0.13
-1.138136549337737,0.8948039044481881,0.0037854117839999993,130048.66496065204,17794981.08199937,254.83150774871476,236.38218389616245,145337.61454790595,220618.1656820654,0.14
-1.1142167337729407,0.8836617371104587,0.0037854117839999993,127601.14864085619,17346488.07541111,252.990691757212,233.43873468283653,144400.44564802278,218708.97074767723,0.15
-1.0911037605270106,0.8727506995051886,0.0037854117839999993,125224.95037609298,16915591.243820637,251.18716399039445,230.55634348529537,143483.07076360987,216851.64951581182,0.16
-1.0687589992041702,0.8620631095131469,0.0037854117839999993,122916.99949608592,16501333.54521398,249.41954481079853,227.73298090233533,142584.687988219,215043.81744690152,0.17
-1.047146199582207,0.8515916475173249,0.0037854117839999993,120674.40337033625,16102823.793438805,247.68652620903813,224.96671329570864,141704.54081148235,213283.23597725277,0.18
-1.0262313136209937,0.8413293343811149,0.0037854117839999993,118494.43450903054,15719231.233433697,245.98686710828545,222.25569697257407,140841.91489197925,211567.80155113386,0.19
-1.0059823330489637,0.8312695110506253,0.0037854117839999993,116374.51877651001,15349780.633335792,244.31938903726152,219.59817279699826,139996.1351035557,209895.53562145287,0.2
-0.9863691409718373,0.821405819640907,0.0037854117839999993,114312.22460664176,14993747.837809455,242.68297213826872,216.99246119346554,139166.562828366,208264.57552126487,0.21
-0.9673633761217766,0.8117321858796892,0.0037854117839999993,112305.25312183921,14650455.73359716,241.0765514802246,214.43695750900355,138352.59347284836,206673.16611938964,0.22
-0.9489383085175348,0.8022428027945139,0.0037854117839999993,110351.42906835461,14319270.584080255,239.49911364971248,211.9301277037801,137553.6541854399,205119.65218311312,0.23
-0.9310687254401364,0.7929321155401126,0.0037854117839999993,108448.69248999283,13999598.694671966,237.94969359574742,209.47050434292004,136769.20175710385,203602.4713794154,0.24
-0.9137308267464044,0.7837948072726485,0.0037854117839999993,106595.0910707841,13690883.37525881,236.42737170637685,207.05668286487497,135998.72068775297,202120.14785363426,0.25
-0.8969021286465753,0.7748257859861828,0.0037854117839999993,104788.77308452681,13392602.169742644,234.93127109735582,204.6873181039854,135241.72140341683,200671.2863310247,0.26
-0.8805613751638504,0.7660201722345443,0.0037854117839999993,103027.98089562208,13104264.326095536,233.46055509505302,202.36112104694195,134497.73861056546,199254.56669245634,0.27
-0.8646884565748572,0.7573732876687957,0.0037854117839999993,101311.04496137274,12825408.483284527,232.0144248974404,200.07685580470414,133766.32977538643,197868.73898059432,0.28
-0.8492643342017211,0.7488806443267786,0.0037854117839999993,99636.37829100853,12555600.554010354,230.59211739853941,197.8333367830977,133047.07371703893,196512.6187974223,0.29
-0.8342709709901466,0.7405379346168771,0.0037854117839999993,98002.47132121005,12294431.784480229,229.192903163061,195.62942603680477,132339.56930499768,195185.08305796055,0.3
-0.8196912673644147,0.7323410219432329,0.0037854117839999993,96407.88717191227,12041516.97444026,227.81608453919262,193.46403079280768,131643.43425157096,193885.0660685791,0.31
-0.8055090019005064,0.7242859319242279,0.0037854117839999993,94851.25724973122,11796492.842463883,226.46099389858966,191.33610113055747,130958.30399154323,192611.55590146163,0.32
-0.7917087764033678,0.7163688441601942,0.0037854117839999993,93331.2771695239,11559016.52305637,225.1269919935961,189.24462780723312,130283.83064165364,191363.5910395578,0.33
-0.7782759650142383,0.7085860845100518,0.0037854117839999993,91846.70296743338,11328764.183522662,223.81346642262847,187.1886402174448,129619.68203332741,190140.25726889068,0.34
-0.765196667009724,0.7009341178399545,0.0037854117839999993,90396.34758128705,11105429.749772573,222.51983019543562,185.16720447762907,128965.54081267792,188940.6847972828,0.35000000000000003
-0.7524576629861435,0.6934095412100931,0.0037854117839999993,88979.07757648043,10888723.731328491,221.2455203906693,183.17942162619244,128321.103602353,187764.04558056654,0.36
-0.7400463741512789,0.6860090774685803,0.0037854117839999993,87593.81009751077,10678372.136771614,219.9899968988669,181.22442593119493,127686.08022030529,186609.5508391382,0.37
-0.72795082447133,0.678729569223867,0.0037854117839999993,86239.51002712901,10474115.471724473,218.75274124451136,179.30138329803094,127060.19295099318,185476.44874928019,0.38
-0.7161596054438156,0.6715679731694288,0.0037854117839999993,84915.18733672015,10275707.812238846,217.5332554813832,177.40948977017,126443.17586493515,184364.02229513912,0.39
-0.7046618432878996,0.6645213547365498,0.0037854117839999993,83619.89461298395,10082915.947144968,216.33106115589644,175.5479701165716,125834.7741828931,183271.5872685099,0.4
-0.6934471683622244,0.6575868830529276,0.0037854117839999993,82352.72474730723,9895518.583531927,215.14569833353977,173.71607649988962,125234.74368128304,182198.49040473741,0.41000000000000003
-0.682505686637081,0.6507618261865568,0.0037854117839999993,81112.80877541521,9713305.610080238,213.97672468395837,171.9130872200394,124642.850135715,181144.10764409616,0.42
-0.6718279530629294,0.6440435466559274,0.0037854117839999993,79899.31385595565,9536077.413458876,212.82371462055127,170.1383055281173,124058.86879981565,180107.842508931,0.43
-0.661404946690886,0.6374294971890185,0.0037854117839999993,78711.44137764582,9363644.243442297,211.68625849080323,168.39105850604565,123482.58391673601,179089.12458769517,0.44
-0.6512280474132001,0.6309172167148865,0.0037854117839999993,77548.42518549302,9195825.622800378,210.56396181387146,166.67069600766231,122913.7882609683,178087.4081178004,0.45
-0.6412890142029145,0.6245043265728574,0.0037854117839999993,76409.52991738329,9032449.798369745,209.45644456219813,164.97658965729514,122352.28270827523,177102.17065984945,0.46
-0.631579964742001,0.6181885269254374,0.0037854117839999993,75294.04944306705,8873353.230038526,208.36334048419647,163.30813190215332,121797.87583173413,176132.91185648658,0.47000000000000003
-0.6220933563365058,0.6119675933620723,0.0037854117839999993,74201.30539821583,8718380.11466508,207.28429646526564,161.66473511513547,121250.38352204775,175179.15226964117,0.48
-0.6128219680255403,0.6058393736818168,0.0037854117839999993,73130.64580682399,8567381.942213532,206.21897192460906,160.0458307449008,120709.62863042929,174240.4322904708,0.49
-0.6037588837985688,0.5998017848438312,0.0037854117839999993,72081.44378576432,8420217.081624331,205.1670382455101,158.45086851027548,120175.44063249491,173316.3111167629,0.5
-0.5948974768423011,0.5938528100754081,0.0037854117839999993,71053.09632580398,8276750.394152548,204.12817823690418,156.87931563627433,119647.65531172881,172406.3657929897,0.51
-0.5862313947448262,0.5879904961279598,0.0037854117839999993,70045.02314383426,8136852.8720995225,203.1020856242413,155.3306561292091,119126.11446119513,171510.1903085992,0.52
-0.5777545455903212,0.5822129506720566,0.0037854117839999993,69056.66560147278,8000401.301038322,202.08846456777593,153.80439008853065,118610.66560226752,170627.39475046186,0.53
-0.5694610848828855,0.5765183398232278,0.0037854117839999993,68087.48568557554,7867277.943792773,201.08702920656026,152.30003305321455,118101.16171924824,169757.60450573073,0.54
-0.5613454032428392,0.5709048857907993,0.0037854117839999993,67136.965046536,7737370.244574165,200.0975032265452,150.81711538064982,117597.46100883339,168900.45951166042,0.55
-0.553402114823182,0.5653708646425675,0.0037854117839999993,66204.60409055588,7610570.551809645,199.11961945128922,149.355181656128,117099.42664344938,168055.61354918426,0.56
-0.5456260463978603,0.5599146041785888,0.0037854117839999993,65289.92112236669,7486775.858317221,198.1531194539063,147.91379013115815,116606.92654757402,167222.7335773212,0.5700000000000001
-0.5380122270772018,0.5545344819078168,0.0037854117839999993,64392.45153513365,7365887.557588832,197.19775318895313,146.4925121889505,116119.83318620382,166401.49910567477,0.58
-0.5305558786091429,0.5492289231217254,0.0037854117839999993,63511.7470445214,7247811.215043435,196.2532786430677,145.09093183552196,115638.02336470418,165591.60160252062,0.59
-0.5232524062280198,0.5439963990594452,0.0037854117839999993,62647.37496411757,7132456.353201226,195.31946150324163,143.70864521497597,115161.37803932738,164792.7439361506,0.6
-0.5160973900154506,0.5388354251592907,0.0037854117839999993,61798.91751960999,7019736.249812181,194.39607484167908,142.34526014760533,114689.78213772966,164004.63984730875,0.61
-0.5090865767404262,0.5337445593918865,0.0037854117839999993,60965.97119930617,6909567.748048075,193.4828988162811,141.00039568955032,114223.12438887771,163227.01345073045,0.62
-0.5022158721481388,0.5287224006704051,0.0037854117839999993,60148.14613875044,6801871.077935266,192.57972038584754,139.6736817128282,113761.29716177011,162459.59876392907,0.63
-0.4954813336692234,0.5237675873337129,0.0037854117839999993,59345.06553735006,6696569.688268065,191.68633303914612,138.3647585046227,113304.19631243618,161702.13926150254,0.64
-0.48887916352310795,0.5188787956984818,0.0037854117839999993,58556.365105073135,6593590.088300912,190.8025365370666,137.07327638479236,112851.72103872207,160954.38745337297,0.65
-0.48240570219103557,0.5140547386765715,0.0037854117839999993,57781.69253741053,6492861.698569681,189.92813666712016,135.79889534062156,112403.77374240122,160216.10448547368,0.66
-0.47605742223602,0.5092941644542113,0.0037854117839999993,57020.70701691224,6394316.710240132,189.0629450095777,134.54128467789738,111960.25989816492,159487.059761483,0.67
-0.4698309224485339,0.5045958552297259,0.0037854117839999993,56273.078739741606,6297889.952428275,188.20677871463067,133.30012268745187,111521.0879291157,158767.03058435922,0.68
-0.46372292229828393,0.4999586260067431,0.0037854117839999993,55538.488465769726,6203518.766974766,187.3594602899352,132.07509632636132,111086.16908836104,158055.8018164394,0.6900000000000001
-0.45773025667363604,0.49538132344000674,0.0037854117839999993,54816.627090854,6111142.890196024,186.52081739799573,130.86590091304234,110655.41734637597,157353.16555701755,0.7000000000000001
-0.45184987089160855,0.49086282473109066,0.0037854117839999993,54107.19524001969,6020704.341167194,185.69068266284305,129.67223983553035,110228.74928379682,156658.92083634765,0.71
-0.4460788159624371,0.4864020365714663,0.0037854117839999993,53409.90288035424,5932147.31612482,184.86889348551333,128.49382427226743,109806.08398934366,155972.87332511053,0.72
-0.44041424409379926,0.4819978941305283,0.0037854117839999993,52724.468952499396,5845418.088605882,184.05529186785762,127.33037292476722,109387.3429625841,155294.835058438,0.73
-0.4348534044207708,0.4776493600863206,0.0037854117839999993,52050.6210196969,5760464.91496676,183.24972424423885,126.1816117615596,108972.45002126734,154624.62417364767,0.74
-0.4293936389484881,0.4733554236968357,0.0037854117839999993,51388.09493341268,5677237.944950759,182.45204132070612,125.04727377285403,108561.33121298003,153962.0646609027,0.75
-0.42403237869534666,0.4691150999098822,0.0037854117839999993,50736.63451462532,5595689.136995665,181.66209792125775,123.92709873539145,108153.91473088783,153306.9861260598,0.76
-0.4187671400253539,0.46492742850962865,0.0037854117839999993,50095.99124992061,5515772.177993743,180.8797528408236,122.82083298698495,107750.13083333956,152659.22356501187,0.77
-0.41359552115896814,0.460791473298039,0.0037854117839999993,49465.92400158978,5437442.407236466,180.10486870462628,121.72822921027793,107349.91176712883,152018.61714888233,0.78
-0.40851519885244486,0.45670632130951455,0.0037854117839999993,48846.19873097671,5360656.744294093,179.3373118335933,120.64904622527446,106953.19169421597,151385.0120194653,0.79
-0.40352392523633573,0.4526710820571512,0.0037854117839999993,48236.588234367184,5285373.620597127,178.57695211551794,119.58304879022145,106559.90662172929,150758.2580943447,0.8
-0.398619524804373,0.44868488680910745,0.0037854117839999993,47636.87189075683,5211552.914502272,177.82366288168257,118.53000741044545,106169.99433507529,150138.2098811666,0.81
-0.3937998915445236,0.44474688789366223,0.0037854117839999993,47046.835420870506,5139155.889639301,177.07732078866673,117.48969815476812,105783.39433399087,149524.72630055647,0.8200000000000001
-0.3890629862044749,0.4408562580316175,0.0037854117839999993,46466.27065684992,5068145.1363495,176.33780570509313,116.46190247914586,105400.04777139272,148917.67051722607,0.8300000000000001
-0.38440683368433665,0.4370121896947741,0.0037854117839999993,45894.97532205421,4998484.5160375815,175.60500060306055,115.44640705719698,105019.8973948736,148316.9097788201,0.84
-0.37982952054972535,0.4332138944892769,0.0037854117839999993,45332.75282045676,4930139.1082714945,174.8787914540443,114.44300361729866,104642.88749071702,147722.3152620996,0.85
-0.37532919265886117,0.42946060256268825,0.0037854117839999993,44779.41203514776,4863075.160474377,174.1590671290439,113.45148878595246,104268.96383029995,147133.76192607006,0.86
-0.370904052897651,0.42575156203371173,0.0037854117839999993,44234.76713548284,4797260.0400632145,173.44571930277655,112.47166393713319,103898.07361876516,146551.128371691,0.87
-0.3665523590171117,0.4220860384435406,0.0037854117839999993,43698.63739244311,4732662.18889777,172.73864236172292,111.50333504735048,103530.16544584988,145974.29670782536,0.88
-0.36227242156780926,0.4184633142278625,0.0037854117839999993,43170.847001798815,4669251.0799120525,172.03773331584614,110.54631255616722,103165.18923876643,145403.1524231075,0.89
-0.35806260192630995,0.41488268820859936,0.0037854117839999993,42651.22491468873,4606997.175808246,171.34289171380678,109.60041123193149,102803.09621703009,144837.5842634219,0.9
-0.3539213104089216,0.41134347510451014,0.0037854117839999993,42139.604675254544,4545871.889700969,170.65401956151976,108.66545004249139,102443.838849147,144277.48411471574,0.91
-0.349847004468291,0.40784500505982724,0.0037854117839999993,41635.82426498244,4485847.547605818,169.97102124388803,107.741252030674,102087.37081106298,143722.74689086474,0.92
-0.34583818696865554,0.4043866231901407,0.0037854117839999993,41139.72595343156,4426897.352673515,169.29380344957758,106.8276441943207,101733.64694629835,143173.2704263494,0.93
-0.3418934045358123,0.40096768914478254,0.0037854117839999993,40651.15615503985,4368995.351076161,168.6222750986887,105.9244573706813,101382.62322768211,142628.95537349538,0.9400000000000001
-0.3380112459780714,0.39758757668500183,0.0037854117839999993,40169.96529171855,4312116.39945816,167.9563472731941,105.03152612497968,101034.25672061217,142089.7051040534,0.9500000000000001
-0.3341903407746797,0.394245673277255,0.0037854117839999993,39696.0076609616,4256236.133869483,167.29593315002086,104.1486886429725,100688.50554777098,141555.42561490784,0.96
-0.3304293576283924,0.3909413797009711,0.0037854117839999993,39229.141309210885,4201330.940103837,166.6409479366585,103.27578662733174,100345.32885522899,141026.02543771296,0.97
-0.3267270030790676,0.3876741096701804,0.0037854117839999993,38769.22791023098,4147377.9253686504,165.99130880917804,102.41266519768949,100004.68677986901,140501.41555226131,0.98
-0.3230820201753048,0.3844432894684274,0.0037854117839999993,38316.132648262945,4094354.8912184928,165.34693485256068,101.55917279419222,99666.54041807557,139981.50930341324,0.99
-0.31949318720134434,0.38124835759641396,0.0037854117839999993,37869.7241057356,4042240.307686986,164.7077470032306,100.71516108441797,99330.85179562701,139466.2223214095,1.0
-0.3159593164565684,0.37808876443184825,0.0037854117839999993,37429.874155327256,3991013.2885564542,164.07366799369947,99.88048487351787,98997.58383873932,138955.4724454117,1.01
-0.31247925308510477,0.3749639719009972,0.0037854117839999993,36996.4578561795,3940653.567707741,163.44462229922902,99.05500201744954,98666.70034620761,138449.1796501155,1.02
-0.3090518739531621,0.37187345316146553,0.0037854117839999993,36569.35335407711,3891141.476496136,162.8205360864289,98.23857333917614,98338.16596259933,137947.2659752967,1.03
-0.3056760865718562,0.368816692295747,0.0037854117839999993,36148.44178541517,3842457.9221021147,162.2013371637028,97.4310625477112,98011.94615244918,137449.65545814918,1.04
-0.30235082806339947,0.365793184015113,0.0037854117839999993,35733.607184785535,3794584.3668087344,161.5869549334672,96.63233615989427,97688.00717541302,136956.27406828792,1.05
-0.29907506416864255,0.3628024333734266,0.0037854117839999993,35324.73639602285,3747502.8081600983,160.97732034606793,95.84226342478853,97366.31606233929,136467.04964529478,1.06
-0.2958477882940627,0.359843955490486,0.0037854117839999993,34921.71898655963,3701195.7599579873,160.37236585532762,95.0607162505959,97046.84059222147,135981.9118386975,1.07
-0.2926680205963975,0.356917275284522,0.0037854117839999993,34524.44716494225,3655646.234055567,159.7720253756447,94.28756913399043,96729.54926998298,135500.79205025436,1.08
-0.28953480710319157,0.3540219272134901,0.0037854117839999993,34132.81570137583,3610837.7229102454,159.1762342405948,93.52269909177473,96414.41130507238,135023.6233784632,1.09
