isenthalpic_mdot [kg/s],isenthalpic_tank.mass [kg],isenthalpic_tank.volume [m^3],isenthalpic_tank.inenergy [J],isenthalpic_tank.pressure [Pa],isenthalpic_tank.temperature [degK],isenthalpic_tank.density [kg/m^3],isenthalpic_tank.sp_inenergy [J/kg],isenthalpic_tank.sp_enthalpy [J/kg],time [s]
-1.5871493244475856,1.0804750995372943,0.0037854117839999993,176171.69212611756,27024797.581143092,287.93166366693805,285.43132456664176,163050.21022840956,257730.76998213038,0.0
-1.5553836407149264,1.064921263130145,0.0037854117839999993,174194.1024614807,26488234.405357547,287.70722505225876,281.32243568092224,163574.63081305035,257730.76998239278,0.01
-1.5245882593657427,1.0496753805364876,0.0037854117839999993,172232.15647525148,25968505.724390414,287.4772141901898,277.2948995861444,164081.35283426757,257730.76998266295,0.02
-1.494720666536069,1.034728173871127,0.0037854117839999993,170286.42555955503,25464828.905125435,287.2421234271624,273.3462653243347,164571.16937531444,257730.76998266333,0.03
-1.465740751661278,1.020070766354514,0.0037854117839999993,168357.40464758436,24976468.822069492,287.00241062080244,269.47418789842135,165044.82845759118,257730.76998266368,0.04
-1.4376106427900417,1.0056946599266137,0.0037854117839999993,166445.51965108918,24502734.36863438,286.7585018075494,265.6764223584437,165503.0361434303,257730.769982664,0.05
-1.4102945550941162,0.9915917143756725,0.0037854117839999993,164551.13415804267,24042975.266552847,286.51079363443733,261.95081828795634,165946.4593869137,257730.76998266447,0.06
-1.3837586513792977,0.9777541278618795,0.0037854117839999993,162674.55547104275,23596579.14472443,286.25965558047716,258.2953146589242,166375.7286576474,257730.76998266496,0.07
-1.3579709135330504,0.9641744187265491,0.0037854117839999993,160816.0400552841,23162968.86148709,286.0054319873646,254.70793502621729,166791.44035752869,257730.76998266554,0.08
-1.3329010239327348,0.9508454084872218,0.0037854117839999993,158975.7984580278,22741600.047247726,285.748443918248,251.18678303539141,167194.15904942475,257730.76998266607,0.09
-1.3085202559362297,0.9377602059278595,0.0037854117839999993,157153.99975433171,22331958.846821085,285.48899086107787,247.73003821976258,167584.41951462094,257730.76998266662,0.1
-1.2848013726598904,0.9249121922012605,0.0037854117839999993,155350.77556766433,21933559.842989936,285.2273522912907,244.33595206488127,167962.72865420295,257730.76998266726,0.11
-1.2617185333248149,0.9122950068680123,0.0037854117839999993,153566.22370862684,21545944.14471483,284.96378910700435,241.00284432041397,168329.56724802536,257730.76998266793,0.12
-1.2392472065210975,0.8999025348028014,0.0037854117839999993,151800.41147025654,21168677.62511958,284.69854494851404,237.72909954115616,168685.39158356862,257730.76998266875,0.13
-1.2173640898017493,0.8877288939047838,0.0037854117839999993,150053.37861419693,20801349.295885894,284.43184741264594,234.51316384045577,169030.634965782,257730.76998266953,0.14
-1.196047035073792,0.8757684235540459,0.0037854117839999993,148325.14007832756,20443569.80602833,284.1639091714364,231.35354184073256,169365.7091179356,257730.76998267055,0.15
-1.1752749793043413,0.8640156737610025,0.0037854117839999993,146615.68843317998,20094970.054211657,283.8949290036379,228.2487938070525,169691.0054825414,257730.76998267166,0.16
-1.1550278801046632,0.8524653949599559,0.0037854117839999993,144924.99611158393,19755199.904832523,283.62509274669833,225.19753295087116,170006.8964305486,257730.76998267267,0.17
-1.1352866557958852,0.841112528401997,0.0037854117839999993,143253.0174334273,19423926.999032427,283.3545741760994,222.198422892107,170313.73638624686,257730.76998267393,0.18
-1.1160331295965602,0.8299521971060314,0.0037854117839999993,141599.69044515013,19100835.652653065,283.08353581826714,219.25017526865489,170611.8628746276,257730.76998267497,0.19
-1.0972499776051436,0.81897969732998,0.0037854117839999993,139964.93859157764,18785625.83389931,282.8121297026656,216.35154748331607,170901.5974973352,257730.76998267628,0.2
-1.0789206802799904,0.8081904905271801,0.0037854117839999993,138348.67223590837,18478012.214150093,282.5404980581502,213.5013405789039,171183.24684278824,257730.76998267762,0.21
-1.0610294771460407,0.7975801957557197,0.0037854117839999993,136750.79004208033,18177723.28596343,282.26877395818116,210.69839723300228,171457.10333555465,257730.76998267908,0.22
-1.0435613244813204,0.7871445825109065,0.0037854117839999993,135171.18023231917,17884500.542864185,281.99708191907143,207.9415998645041,171723.4460296197,257730.7699826807,0.23
-1.026501855757907,0.7768795639533274,0.0037854117839999993,133609.72173140172,17598097.715992086,281.7255384550598,205.22986884465394,171982.5413497794,257730.76998268245,0.24
-1.0098373446314781,0.7667811905070125,0.0037854117839999993,132066.28520804082,17318280.063126363,281.4542525936597,202.56216080586194,172234.6437850356,257730.76998268432,0.25
-0.9935546702911011,0.7568456438041016,0.0037854117839999993,130540.73402278042,17044823.705999386,281.183326354428,199.9374670420537,172479.9965375357,257730.7699826863,0.26
-0.9776412849967744,0.7470692309541338,0.0037854117839999993,129032.92509088466,16777515.012168378,280.91285519401566,197.35481199477715,172718.8321303071,257730.7699826883,0.27
-0.9620851836465905,0.7374483791176679,0.0037854117839999993,127542.70966789256,16516150.018037515,280.6429284201243,194.81325181970428,172951.37297676769,257730.76998269052,0.28
-0.9468748752283862,0.727979630365384,0.0037854117839999993,126069.93406477795,16260533.889913127,280.37362957675424,192.3118730285498,173177.8319147495,257730.76998269264,0.29
-0.9319993560225214,0.7186596368051589,0.0037854117839999993,124614.44029900084,16010480.4202397,280.1050368029381,189.8497912017804,173398.41270755266,257730.7699826949,0.3
-0.9174480844331419,0.7094851559608275,0.0037854117839999993,123176.06668714645,15765811.556403123,279.83722316696463,187.42614976781286,173613.31051434614,257730.76998269735,0.31
-0.903210957335011,0.7004530463874774,0.0037854117839999993,121754.64838431681,15526356.959704457,279.57025697792915,185.04011884469728,173822.7123320475,257730.7699827,0.32
-0.8892782878318414,0.691560263509159,0.0037854117839999993,120350.0178749636,15291953.592305075,279.3042020763018,182.6908941405565,174026.79741064922,257730.7699827028,0.33
-0.8756407843301446,0.6828038556658576,0.0037854117839999993,118962.0054194191,15062445.330122791,279.0391181050619,180.37769590930657,174225.73764380632,257730.76998270556,0.34
-0.8622895308399707,0.6741809603574579,0.0037854117839999993,117590.43945999254,14837682.59982172,278.775060762822,178.09976795841717,174419.69793635947,257730.76998270833,0.35000000000000003
-0.8492159684206407,0.6656888006732515,0.0037854117839999993,116235.14699015059,14617522.03818738,278.51208204025687,175.85637670568727,174608.83655034442,257730.76998271138,0.36
-0.836411877695737,0.6573246818962941,0.0037854117839999993,114895.95388997978,14401826.172313442,278.2502304410382,173.6468102822111,174793.30543091774,257730.7699827143,0.37
-0.8238693623672281,0.6490859882726219,0.0037854117839999993,113572.68523084537,14190463.119150732,277.98955118839285,171.4703776788956,174973.25051352647,257730.76998271747,0.38
-0.8115808336638014,0.6409701799359838,0.0037854117839999993,112265.16555189808,13983306.30308147,277.73008641830717,169.32640793406057,175148.81201354865,257730.76998272084,0.39
-0.7995389956631808,0.632974789979352,0.0037854117839999993,110973.21911084722,13780234.190284926,277.471875360322,167.2142493598134,175320.1246995433,257730.76998272407,0.4
-0.787736831432585,0.6250974216650261,0.0037854117839999993,109696.67011120357,13581130.038755495,277.21495450679475,165.1332688050369,175487.3181511653,257730.7699827277,0.41000000000000003
-0.7761675899354602,0.6173357457656715,0.0037854117839999993,108435.34290800325,13385881.662920017,276.95935777143217,163.0828509529656,175650.5170027254,257730.7699827314,0.42
-0.7648247736563215,0.6096874980291083,0.0037854117839999993,107189.0621938474,13194381.211880863,276.7051166378408,161.06239765145412,175809.8411733053,257730.76998273507,0.43
-0.7537021268989108,0.6021504767601191,0.0037854117839999993,105957.6531669327,13006524.960383572,276.4522602987827,159.07132727415825,175965.40608427257,257730.76998273883,0.44
-0.7427936247160098,0.594722540512959,0.0037854117839999993,104740.94168260433,12822213.111674918,276.20081578677764,157.10907411096048,176117.322864984,257730.7699827428,0.45
-0.7320934624321376,0.5874016058886377,0.0037854117839999993,103538.75438982846,12641349.611477861,275.9508080966368,155.17508778607368,176265.69854740545,257730.76998274683,0.46
-0.7215960457230034,0.5801856454314076,0.0037854117839999993,102350.91885386471,12463841.972366856,275.7022603004795,153.26883270235197,176410.636250333,257730.76998275094,0.47000000000000003
-0.7112959812180626,0.573072685619227,0.0037854117839999993,101177.2636663072,12289601.107878212,275.4551936557373,151.3897875104272,176552.23535384747,257730.76998275536,0.48
-0.7011880675947929,0.566060804943279,0.0037854117839999993,100017.6185435642,12118541.17573799,275.2096277066152,149.5374446013716,176690.5916645938,257730.76998275964,0.49
-0.6912672871354012,0.559148132071925,0.0037854117839999993,98871.8144147571,11950579.429633962,274.9655803794468,147.7113096216655,176825.7975724381,257730.769982764,0.5
-0.6815287977186348,0.5523328440947387,0.0037854117839999993,97739.68349993393,11785636.078998262,274.7230680723455,145.91090100932036,176957.94219901427,257730.76998276863,0.51
-0.6719679252211623,0.5456131648425271,0.0037854117839999993,96621.05937942024,11623634.156305045,274.4821057395295,144.13574955007516,177087.11153864235,257730.76998277323,0.52
-0.6625801563046708,0.5389873632794804,0.0037854117839999993,95515.7770550598,11464499.391421538,274.24270697066737,142.38539795264728,177213.3885920664,257730.76998277789,0.53
-0.6533611315663741,0.5324537519638166,0.0037854117839999993,94423.67300403431,11308160.092582861,274.00488406556826,140.65940044207795,177336.85349342972,257730.76998278266,0.54
-0.6443066390320688,0.526010685573496,0.0037854117839999993,93344.58522589596,11154547.033590345,273.7686481045189,138.95732237026715,177457.58363088148,257730.7699827876,0.55
-0.6354126079722161,0.5196565594937738,0.0037854117839999993,92278.35328339123,11003593.34686002,273.53400901454506,137.2787398428445,177575.65376117773,257730.76998279244,0.56
-0.6266751030227579,0.5133898084635462,0.0037854117839999993,91224.81833760989,10855234.42197347,273.300975631861,135.62323936157173,177691.13611862322,257730.7699827975,0.5700000000000001
-0.6180903185935581,0.5072089052776106,0.0037854117839999993,90183.8231779457,10709407.809406055,273.06955576074597,133.99041748151612,177804.10051867168,257730.7699828027,0.58
-0.6096545735484041,0.5011123595421266,0.0037854117839999993,89155.21224731799,10566053.12912926,272.83975622907576,132.379880482278,177914.61445648706,257730.76998280786,0.59
-0.6013643061415282,0.49509871648071135,0.0037854117839999993,88138.83166306495,10425111.983803999,272.6115829407181,130.79124405259458,178022.74320074666,257730.769982813,0.6
-0.5932160691965325,0.489166555788746,0.0037854117839999993,87134.52923388651,10286527.876299929,272.38504092498874,129.22413298767975,178128.54988295006,257730.76998281837,0.61
-0.5852065255144681,0.4833144905336013,0.0037854117839999993,86142.15447318331,10150246.131293261,272.1601343833503,127.67818089869438,178232.09558248176,257730.76998282378,0.62
-0.5773324434986358,0.47754116609861497,0.0037854117839999993,85161.55860911026,10016213.82071124,271.9368667335229,126.15302993377459,178333.43940765917,257730.7699828294,0.63
-0.5695906929844191,0.4718452591687708,0.0037854117839999993,84192.59459163745,9884379.692806538,271.7152406511675,124.64833051007665,178432.63857298443,257730.76998283484,0.64
-0.5619782412631834,0.46622547675613896,0.0037854117839999993,83235.11709688729,9754694.104658403,271.4952581092893,123.16374105632548,178529.74847280546,257730.76998284043,0.65
-0.554492149289912,0.4606805552632398,0.0037854117839999993,82288.98252899456,9627108.95791022,271.27692041549886,121.6989277653815,178624.8227515776,257730.769982846,0.66
-0.547129568064883,0.45520925958259095,0.0037854117839999993,81354.0490197158,9501577.63756493,271.0602282472595,120.25356435636621,178717.9133709061,257730.76998285166,0.67
-0.5398877351802525,0.44981038223078845,0.0037854117839999993,80430.17642599794,9378054.953671213,270.8451816852448,118.82733184591062,178809.0706735419,257730.76998285743,0.68
-0.5327639715229521,0.4444827425155589,0.0037854117839999993,79517.22632569613,9256497.085743103,270.63178024491486,117.41991832811365,178898.34344448743,257730.76998286322,0.6900000000000001
-0.5257556781258078,0.43922518573430086,0.0037854117839999993,78615.0620116182,9136861.529765828,270.4200229064199,116.03101876281922,178985.77896936575,257730.76998286895,0.7000000000000001
-0.5188603331592638,0.4340365824027082,0.0037854117839999993,77723.54848405675,9019107.047649214,270.20990814292816,114.66033477184006,179071.42309019293,257730.7699828749,0.71
-0.5120754890565216,0.42891582751214297,0.0037854117839999993,76842.55244195777,8903193.6189987,270.0014339474705,113.30757444277641,179155.3202586871,257730.76998288077,0.72
-0.5053987697653278,0.42386183981448966,0.0037854117839999993,75971.94227286278,8789082.395081535,269.79459785838964,111.9724521400945,179237.51358724153,257730.7699828867,0.73
-0.4988278681200293,0.4188735611332894,0.0037854117839999993,75111.58804174933,8676735.654873103,269.5893969834715,110.65468832314743,179318.0448976777,257730.76998289264,0.74
-0.4923605433278608,0.41394995570001075,0.0037854117839999993,74261.36147888568,8566116.763075214,269.3858280228377,109.35400937083648,179396.95476789188,257730.76998289864,0.75
-0.4859946185637927,0.4090900095143728,0.0037854117839999993,73421.1359668059,8457190.1300044,269.18388729066885,108.07014741262634,179474.2825765007,257730.76998290463,0.76
-0.47972797866856315,0.40429272972768715,0.0037854117839999993,72590.78652650178,8349921.173254269,268.98357073582446,106.80284016564134,179550.06654558337,257730.7699829106,0.77
-0.47355856794482637,0.3995571440482389,0.0037854117839999993,71770.1898029216,8244276.28104149,268.78487396142197,105.55183077758363,179624.34378161616,257730.76998291662,0.78
-0.4674843880466316,0.3948823001677726,0.0037854117839999993,70959.2240498576,8140222.77715031,268.58779224343505,104.31686767522692,179697.15031468705,257730.76998292253,0.79
-0.4615034959577014,0.3902672652081956,0.0037854117839999993,70157.7691142974,8037728.887395099,268.39232054836316,103.09770441825086,179768.52113607424,257730.76998292853,0.8
-0.45561400205422925,0.3857111251876533,0.0037854117839999993,69365.70642030814,7936763.707525299,268.1984535500265,101.8940995581931,179838.49023426755,257730.76998293446,0.81
-0.44981406824815257,0.3812129845051718,0.0037854117839999993,68582.91895251714,7837297.172501116,268.00618564553173,100.70581650230629,179907.0906295079,257730.76998294075,0.8200000000000001
-0.4441019062070637,0.3767719654431012,0.0037854117839999993,67809.29123924664,7739300.027072586,267.81551097045747,99.53262338211744,179974.35440691502,257730.7699829469,0.8300000000000001
-0.43847577564714185,0.3723872076866298,0.0037854117839999993,67044.70933535608,7642743.79759812,267.6264234132981,98.37429292649708,180040.31274827072,257730.76998295277,0.84
-0.4329339826956641,0.36805786785967315,0.0037854117839999993,66289.06080484061,7547600.76504244,267.4389166292102,97.23060233905406,180104.99596252127,257730.76998295885,0.85
-0.4274748783198537,0.3637831190764746,0.0037854117839999993,65542.23470323032,7453843.939096822,267.25298405309536,96.101333179681,180168.43351505822,257730.7699829649,0.86
-0.42209685681897885,0.35956215050828483,0.0037854117839999993,64804.121559830404,7361447.0333679,267.0686189120566,94.98627125008308,180230.65405583402,257730.76998297087,0.87
-0.4167983543767829,0.355394166964517,0.0037854117839999993,64074.61335984074,7270384.441584143,266.8858142372624,93.88520648313094,180291.68544636815,257730.7699829769,0.88
-0.4115778476714842,0.35127838848780213,0.0037854117839999993,63353.603526387524,7180631.214771716,266.70456287524735,92.79793283588567,180351.55478569222,257730.76998298292,0.89
-0.4064338525407111,0.347214049962395,0.0037854117839999993,62640.98690249893,7092163.039354319,266.52485749868214,91.72424818615059,180410.2884352844,257730.76998298886,0.9
-0.4013649226988928,0.3432004007354061,0.0037854117839999993,61936.65973305251,7004956.216133568,266.3466906166366,90.66395423241123,180467.91204303756,257730.7699829947,0.91
-0.3963696485047303,0.3392367042503588,0.0037854117839999993,61240.51964672033,6918987.6401092885,266.170054584366,89.61685639703151,180524.4505663056,257730.76998300056,0.92
-0.3914466557765156,0.3353222376925936,0.0037854117839999993,60552.46563793528,6834234.781100783,265.99494161264306,88.58276373257935,180579.9282940689,257730.76998300635,0.93
-0.38659460465316353,0.331456291646062,0.0037854117839999993,59872.39804889921,6750675.665132395,265.82134377665767,87.56148883116121,180634.36886825663,257730.7699830122,0.9400000000000001
-0.3818121884989279,0.32763816976107274,0.0037854117839999993,59200.21855165311,6668288.856548593,265.6492530245099,86.55284773665004,180687.79530426612,257730.76998301802,0.9500000000000001
-0.37709813284989085,0.32386718843257384,0.0037854117839999993,58535.83013022594,6587053.440825443,265.47866118531346,85.55665985969623,180740.23001071182,257730.76998324203,0.96
-0.3724511944003395,0.3201426764885704,0.0037854117839999993,57879.137062926115,6506949.008052987,265.3095599771267,84.57274789541641,180791.6948085879,257730.76998346217,0.97
-0.36787016002773915,0.31646397488829303,0.0037854117839999993,57230.04490454777,6427955.63702953,265.1419410137461,83.60093774365792,180842.21094912654,257730.7699836786,0.98
-0.36335384585312597,0.31283043642976177,0.0037854117839999993,56588.46046899295,6350053.879998576,264.97579581235226,82.64105843174546,180891.7991318868,257730.76998389134,0.99
-0.358901096337958,0.30924142546638217,0.0037854117839999993,55954.29181182835,6273224.747942033,264.8111158000461,81.69294203961357,180940.47952159363,257730.7699841004,1.0
-0.3545107834135232,0.3056963176322469,0.0037854117839999993,55327.44821303541,6197449.696434248,264.64789232028227,80.75642362723912,180988.2717645111,257730.76998430584,1.01
-0.3501818056426251,0.3021944995758207,0.0037854117839999993,54707.84015991262,6122710.612026594,264.48611663901687,79.83134116428818,181035.19500422414,257730.7699845076,1.02
-0.34591308741197047,0.298735368701701,0.0037854117839999993,54095.37933013809,6048989.799139562,264.32577995058165,78.91753546189653,181081.26789685374,257730.7699847058,1.03
-0.34170357815396446,0.29531833292016135,0.0037854117839999993,53489.978574999885,5976269.967440514,264.1668733833001,78.01485010650599,181126.50862573026,257730.76998490051,1.04
-0.33755225159668567,0.2919428104041945,0.0037854117839999993,52891.55190279942,5904534.219686107,264.0093880048537,77.12313139568188,181170.93491554435,257730.76998509164,1.05
-0.3334581050408656,0.28860822935378583,0.0037854117839999993,52300.014462434614,5833766.040009787,263.8533148274148,76.24222827584083,181214.56404600115,257730.76998527933,1.06
-0.3294201586627603,0.28531402776715825,0.0037854117839999993,51715.28252716644,5763949.282635327,263.69864481255496,75.37199228181996,181257.41286499496,257730.7699854636,1.07
-0.3254374548418423,0.2820596532187398,0.0037854117839999993,51137.2734785734,5695068.160998457,263.54536887593736,74.51227747822213,181299.49780132496,257730.7699856446,1.08
-0.32150905751230124,0.2788445626436168,0.0037854117839999993,50565.905790697114,5627107.237259547,263.3934778918066,73.66294040247455,181340.8348769703,257730.76998582212,1.09
